;RAW4.00
[RawHeader]
Date=06/27/2021
EstimatedTotalTime=550.2
FurtherDQLReading=0
HardwareIndicator=65519
MeasuredTotalTime=62.7701
MeasurementFlag=1
NumberOfMeasuredRanges=1
NumberOfRanges=1
Time=18:23:43

[VarInfo]
Type=USER
Flags=0
Value=Lab Manager

[VarInfo]
Type=SAMPLEID
Flags=0
Value=Commander Sample ID

[VarInfo]
Type=COMMENT
Flags=0
Value=

[VarInfo]
Type=UTF
Flags=0
Value=

[VarInfo]
Type=CREATOR
Flags=0
Value=V5Converter

[VarInfo]
Type=CREATOR_VERSION
Flags=0
Value=3.3.47.0

[HardwareConfiguration]
AbsorptionFactor=9999
ActivateAbsorber=0
Alpha1=1.5406
Alpha2=1.54439
AlphaAverage=1.5418
AlphaRatio=0.5
Analyzer=0
Anode=Cu
AntiScatteringSlit=9999
BeamOpticsFlags=0
Beta=1.39222
BetaRelativeIntensity=0
DeactivateAbsorber=0
DetectorSlit=9999
DivergenceSlit=9999
GoniometerControl=0
GoniometerDiameter=900
GoniometerModel=256
GoniometerStage=4
Monochromator=0
NearSampleSlit=9999
PrimarySollerSlit=9999
SampleChanger=0
SecondSollerSlit=9999
SynchronousAxis=0
ThinFilmAttachment=9999
WaveUnit=A

[RangeHeader]
ActuallyUsedLambda=1.5418
AdditionalDetectorMask=0
DataRecordLength=4
DelayTime=0
DisplayPlaneNumber=0
EstimatedScanTime=550
ExtraParametersMask=0
GeneratorCurrent=40
GeneratorVoltage=40
Increment=0.02
Increment3=0
NumberOfCompletedData=2751
NumberOfCounts=1
NumberOfDetectors=1
NumberOfDrives=8
NumberOfEncoderDrives=0
NumberOfMeasuredData=2751
NumberOfVaryingParameters=0
RangeStartTime=0
RotationSpeed=0
ScanMode=1
ScanType=Locked Coupled
SimulatedMeasConditions=0
SlitChangerIn=0
SmootingWidth=0
Start=5
Steps=2751
SynchronousRotation=0
Time=2.2

[VarInfo]
Type=OPTICS_V5
Flags=0
Value=H4sIAAAAAAAEAO1d3XKjOBZ+FcpXM7vVweCfJFPEXY6TzqQ6aadip7dnblzEVmKmMWQAdydzv++zV/sAOy+2kkAghITBxn9tXXTa6O9IR0fnnO+AJOP968xWvgHPt1znrKYd1WsKcMbuxHKez2rz4Omd1q697xhXrmO5MxAAr+fOXlwHOMGFGZgKrO34v7z61lltGgQvv6jq9+/fj743jlzvWdXrdU39cnszGE/BzHxnOX5gOmNQi2tNFteqKZ8t33q0wSdzBs5qST/ijAvgjz3rJcADGE4B7JWq6OEPuviV585friFJOMRz4MEB9h//AOPgzgymZzX1AnyzxkCla9ClsuTD3J5t+n7URMwa9RyYsxeY2HOdwLQc4FHtqrhrYQdJK91xMDftqJlryCdvPkPtZDvVMQaQiRPThoQGsK5pW3+ZaOydJ9P2gaGKso0vM/uDBezJPYDNW2OUCLvnAPzLV9SOEfYCzesA2DC9c+lAkmBiqJkcI+w3xfsLy3+xzbeOcAYMVVgn21rnqv9pqI/CvxeXg949pzqph+aGNJWlR+caaGLu6InxOWndx7ECRfqX4O0FzvnQM8df0dAZUbzzrJnpveFsvjBGJZQ+fB4rcFqU4fwRUCxRosplRVNN087KKS+/qKTiSoRCaQFlugaF7tx0vva9CfDuAdIzAA4Ti+rui3LB+Ssn2HfD+48j+Kfb+1hKsGm+ckX72odDs76BDpwbyLz4Mc64dgLIRMJcJjVcBa5vhZ0MiRlqKtVAU0me/PSjQj9gQe571rPlmHY6Q6uRwYXyCuc4mPudfjymVLJBKkbPt+4cziOcRSbdiDJiuabXL5wznM1Zw3GewJrA7BnKVp5cTxkA0wahDKy4ZFWKbnbxZjL5KxdLpRp3UQ27t9qCTXWMmTeac5evAXAmaCnvzCoOUyhxSiUYt6gTgeu9xdKsGWo20aA64yu4e+GkkOUCx0vxoUOSDZVONbLChIZDtU3JJ5Xad85d1wamU1MeHCvA3L2w4Lwh7+zGmlkBZkuc5Hfqhko9GRfgyZzbwWfTngOKRNQq5J4VQJWOs89qSE/UUHsq1QWkLoZuD0/X1LRt93uiMJh0WLI3BeOvYJIUIQlGb+4H7gxNEOoj9WSEfmPRvnXngdvzgBmAO899AV7wRohxclIj8bGEXU+g1H+azx6B12m3G/WWoTKpcBiDsek4cNEk44hTEEvtUCSjOfnff+Je1nEXb90J6DzA5fAE7SeUTfxMNBK2GBmdw1c361Aw+NfHDze9uf6xJ9I2bP4ihVOxrmH7mDEYB6Fh/mV+AzfAeQ6mXftlamqMpmGzC2mcDa/lu+mbb41NGy+P/tOFO4ddIrrs73/H60Y7ajXr7dXXd0FW6vms1Pedlc3G6UZ4Cd1385m1gJn8feemdrIJZp4j9C/iJMrcbzY2TnVd3wQf75GqFzIS5+4dJxP/4qi1Ph5i8wsrIovJMJDO2kXuDQLkdmAmxbzqzdfHqg/ueO5DPAudGuxZMOxis3eRZYzAQdTfbmbkTVuLy93OutxXwIG2AvpFTHSXJPP94xxPMIx5LOkIdgxxJi0Gn107yBrAKHU7k95oLa9mvn6OJ75ZX2bmxVwrytHe3POgWDAcjVL3j6Oz7tY5eud+x28JaNbhtD1QSiwz/0FJqNauV85RdZFaKIMOob0cT1GQ+8+55QGEfzvRbxQSyGYaIVAOiaJeJ2qMl8MrPjS9ZxB8sM3nzp0HPliviFR+OdLNgoGA6kIOhUMKcIojjSpUU5F+EC46NbYjHYOFzblglAWG+XArg3xy8UTau8/3mRkHVuQW0m4a4waxLgnf0qtUkApK+zfTsk24AtGjHzaPF6wMX8nwlQxfyfCVDF/tATdl+EqGr2T4SoavZPhKhq9k+EqGr2T4SoavZPhKhq9+xPAViVDBn2zwinyYl/mgbDCdB+jT3ZTljhJL2+3NRnD2fo3GbF5leTKN8FdmVEgdmE8AfVaockcXlcLd7r8A8qxAW+GD6IE7XLqicWH5SPCiNFyXCAYviymP6PKL4xyDDCWJ1sajzPl0/XL2ErzhUKRCQnflPlO/vL3rD0bh3zKfqWPCaLK436irdHA09wNyTfQBub7xD8ivXPAI7FvL81wvXOnehPmOHBsCfxQagVFYYRTWGCGVxg2XR00pV3//FxZXwuKrRs4X9SS7KIvVyDOANIPUhEMrRdcX9ooRih/t63SdG3znwNOT6j9o3h9Fk6G5pLbRRdqmsXFt03/puefua/8JG1u8DAgeYJTOwLaCnM0rKFvB+cpPcPKVcbjDS4EEFZyH2/55VYVD9YJj8NnMPDWCCs/owkuqDpooM5l8LRFXUH6CklGQbz/vr25pFNUtp+vYLIElP9xSl0g9FnbEXc4mLZScI+I/ob1ZjwDSVyzHh+sETOCPwFVMaioLizmqkuyFRE+juj7SRMKdylwk3AXlWtyFjGraoAB2J3/M/aAiCayXe7VsTYIp+5IEpVW16yoTu5lBapAhT9bzHC66e+t5iqCWOVFIInLTDZUtUslmrfyo0owKKeEFBWEZmZoVW3pwbNRrMIkwYvKMeOja83DqjuoajpqTBOPWcqzZfNZ5px0dnx63Txtao3nS1hta6/jyn9hBISWgJLziH+KSUYHt7kkrybi1vLT5FSCRYqQ+TDxosa8f6VXJPWlKCv6ynKv2XZt+wnE4FrsU2BQIF2e4ZMRDUGmPZJ+wT4wpiPe6IgZqiDBQc3sYaODaNvB4PiHOyEM/uMBM4MbjzKoAEN0VjpeYzc71E5N+rwqDUoSZGRUAoaRKCIUKM3GP0VCzIBrS6occaYlXbyIiK+qbpkjftHY45hKFJVEjJuxCPjJdf/CF1x1hhJdTahPhGC51ZsL56ihb80ACNK2iKkmXARoUHWnnBWjaGwnQtLMBmpYM0Bw0UpUBmq3jVBmg2UaApjK5J01JwV+WcxUHaE4bmwzQtH+MAE3kDesr4qWWCC+19wovjfpPTz7YNdgU96oIemIKbwdEJZ1ghKEolooaOBBI1S4KqZo7Aak+ucoWUdUnFwsIF1SxeWvBVBSRjKqTkOpwfcvoY/QqINWJ9CyXg1Rr3F8sIZWA52TLRBWCT9qSor806ypGVcecb3iXR1UnuagqHsOPAqsaK8KqtghWHW8cVt27ARxQ99F3vUe0/QNODMc1TJfie4hhGSUptBpeYklmvUJ+iTzf8BbqQ4swR0BhSbCUaSz9rbfoM+B0NYyLGD7uMf45LuV9khKZnbhktVdjjMPR4O38Db3iM++zJwZQJNL7CMNuIDt/HYAZbPLGfbbGeGzQ9iUPZKBD8Bp0khOM8KPxEbzhRlFG/BvKA9t2DjFdSOzkqH0qoqcvTa8hpHfcOmrqIoKNpQk2hQRbun58VD8WkWwuTbIlJIlMtYheK5/emr2VRrPkWRgcya7AUQl18LXz5CoxCynVoITPPgjSSZENPquFe0KVJDdlovq3d6OLa2j7R8Pu/dXlMJUdtwF/jD2o4ZVMYyoveqOv4RudcPbBJPYfuJxOZCTipwV8as5SRl0QKyVlNEXjW/XYNIVxlSptuhoT51n3TOaioI+6Fkue6mTGV9vXuFA5y4xZgOXhgzlGR82kLTSbXZWlvrH8YJg96Cnc5R9uymWMdsewIIiARgT9R1lskkuZcC1t0AdQXmywBJYXIPltgHdGh+wW1s4wuNgYkQxwWB7ndYwJzkP8i35xUlSqvEqT3aUgAOoehMZksKlBcued71iWKJpmC+7geo6ek3FlTmRHr2xPiS63lCwXXFvneYsyrszneWVvU+TLlOWEvoJ3KZxX2Jw77pYOJ0fLUhROjgbAeJ2btpdZ+ioPj1WK0nQFBWW2B9T0PKCm7whQ01mgVt9RoPbgzEjAXuI1idd2y5JJvLZ2vBbq8qImKC4tUZtEbQftwErUJlHbwQn9elAb55z5XUdtVVjNbWC3hoJfcG8PvDXywFtjR8BbQ4I3Cd4keJPgbdfBW6TMi9qhpLiEbxK+HbQnK+GbhG8HJ/TrgW/H+wffqrGb2wBwTSX6YHh7EK6ZB+GaOwLhmhLCSQgnIZyEcLsO4WJ1XtQY0RUkjJMw7qA9WgnjJIw7OKFfD4yrciv+hmBcdbazMigHWV8IzsFyAgSHc/KB2/sHZwKeLAdMGKz1ngfN2NJJ3nsOWOOXTjVOI7XcrvzgO9U4i2ipaxwEorZHB1OEgBwdKOA5pq2teDBFXXQwxQn/YAoKQhc4n+LB5x1OIeTVwHHn0Zli5Tg6uO2P0L8y3Hw47xU+YD71iNwYc2LN/ayybUX3b58Dc4YWZnT4nUAWu6+WTzsucbEN+BiZziSuQKQghL5BXegdnB61mm2N5wycnB6dthqntPVnRo+YHHEtPqGt+zhOeEmnUqPEkSneceFg7KIrQsPQleCIO1ImPHlQgWpHuQABQFZJSYJgStRE6Qgf24esveCX4MfzECNeaEao0RUcpI3y0T2WPNSnSNL73gTd8fwNeD46sgQLxM4cSiLWHmVms6R+Gd5/HME/3d7HUjomzV+upiFXiJMrs8ljnHHtBJCZia+bSg1XB9FTMbloLXENgL+cPdAEBmGtB8Aip842x2Dq2hP+DT1jCzJCsLpxnm2Hd7v3MJ1lDilKT6KaNOtyDyni5ecF6ImIQs7AimoXct59VsnAVlvRbGfZGf3R7jPWTgo6j3rpC43LeIjQxCLdadqJ/gmPvUWnqeJpxsrpBirxuIRfTiNd3A5H+F8JbURIVXGvjvDmdG2LF3ktPCiacGAkPvY2nrHkfNvVdQZDN6s0uAUKHfkct72yrmD7wE4rX1mkauHjzDgc3OMjzbSiN3fpnHfzh3hNjj7ibhrNZK71HuPMllCslvY1JCIPdZb35PwAsXR5T468yPggBX9NFxmfcs4hlBcZC+LmGZpLAh9dCHx0eYPxgmDE7txhnNszdlrlNcYJGtKLoiHORtPDuce4uvuLhfela9oOx1ni2+I3fQEXu66TfvARaXFts/wVWzl9YmdUoGlIjQO5RUvTiioZzhlkh3qNFjfowuat8xqtbMhFkyGXg8ae8h6trSNPeY+WvEfrUEV/XfdoLfXd4aHeoxX7rivioKYQB9V3GAdF9+HGCGAUu5FbBkZ5Hcu6kYtLbwY65faDlYrcG4o5TRwKuOJ7thxwtRt3FG/9fXaTf0NxJnON77Ob2TuKtV3dYy3BlXyffSgepnyfvYX32c3q3mc3peAv+T67uZb32dom32c39xtYlXqfXXT/UvPA9y+dHkG/t8FbuG3t6OTk+GQNG5gSuNMD4Q6FlP/LJKY8YGpTS1hMeUcQi69A9+sZ+PhDczQD3fEY+L7rWcBfAj6SXmT94HRO0Z1L2UGXhYak3l5vWVpyAsupmav+p94I/ymjZML+rH3L0hDtwF3PjqXTjQeGLuc2EiOn55kTpKoyCxmKkqBMal1HRRVSViGFl1y3qoA2fzULC+YiXLjCbYBFViW1CdllF7ew28w0C3YxKeRO3W4QmOMpInVWe7fhl5JVhm5Oi0Zu9LKRG/g74lW8puMEg1I8aIiwf+OvSGyQxu18weyiEpj83xbk/74g/25qZUrc2fPnZzC58JBSCe/KhsNF5vh60umhCskjysEFBy9gbD1FV3STQtkcuN6zrecSvCtC8K5Cgl8Wk/tSGbHfFhP7rTJivy8m9nsZYmW8eYHOLenRP9z0RvhPWVObUXNVuvWlnPpYWcbeGln2z/hQFvQ/gxul3ZN2T9o9afek3dsRuxcrafJ7UQ+G393hFATm4o6kSlYx+KJ0yxIVRGOyybAsfr08AEEAF5uv0Ej0rBYduFRTuijS6t/O7cAKAS0JMyDtACEo1DqhvvwV6oy/UOu2odLpRqLph9BuhkMa6dHImEyDPnk5VECpl+E4iY6jEMOEp/3/2tmQ8nLxAAA=

[Detector]
AmplifierGain=80
ConstantDeadTime=0
DetectorFlags=257
DetectorName=Scintillator
DetectorNumber=1
DetectorType=1
Discriminator1LowerLevel=0.9
Discriminator1WindowWidth=0.85
Discriminator2LowerLevel=0.5
Discriminator2WindowWidth=1.3
HighVoltage=573
PileUpTime=0
PulseShaping=0
TTLDetectorName=

[Drive]
DriveFlags=1
DriveName=2Theta
DriveNumber=2
DriveOffset=0
OffsetIndex=0
OscillationAmplitude=0
OscillationSpeed=0
StartPosition=5

[Drive]
DriveFlags=1
DriveName=Theta
DriveNumber=1
DriveOffset=0
OffsetIndex=0
OscillationAmplitude=0
OscillationSpeed=0
StartPosition=2.5

[Drive]
DriveFlags=1
DriveName=Chi
DriveNumber=4
DriveOffset=0
OffsetIndex=0
OscillationAmplitude=0
OscillationSpeed=0
StartPosition=0

[Drive]
DriveFlags=1
DriveName=Phi
DriveNumber=3
DriveOffset=0
OffsetIndex=0
OscillationAmplitude=0
OscillationSpeed=0
StartPosition=0

[Drive]
DriveFlags=0
DriveName=BeamTranslation
DriveNumber=14
DriveOffset=0
OffsetIndex=0
OscillationAmplitude=0
OscillationSpeed=0
StartPosition=0

[Drive]
DriveFlags=0
DriveName=X-Drive
DriveNumber=5
DriveOffset=0
OffsetIndex=0
OscillationAmplitude=0
OscillationSpeed=0
StartPosition=0

[Drive]
DriveFlags=0
DriveName=Y-Drive
DriveNumber=6
DriveOffset=0
OffsetIndex=0
OscillationAmplitude=0
OscillationSpeed=0
StartPosition=0

[Drive]
DriveFlags=0
DriveName=Z-Drive
DriveNumber=7
DriveOffset=0
OffsetIndex=0
OscillationAmplitude=0
OscillationSpeed=0
StartPosition=-0.047

[Data]
     Angle, Det1Disc1,
         5,      2607,
      5.02,      2579,
      5.04,      2560,
      5.06,      2369,
      5.08,      2422,
       5.1,      2372,
      5.12,      2477,
      5.14,      2334,
      5.16,      2417,
      5.18,      2318,
       5.2,      2402,
      5.22,      2375,
      5.24,      2405,
      5.26,      2317,
      5.28,      2344,
       5.3,      2397,
      5.32,      2246,
      5.34,      2329,
      5.36,      2273,
      5.38,      2188,
       5.4,      2242,
      5.42,      2408,
      5.44,      2289,
      5.46,      2228,
      5.48,      2223,
       5.5,      2283,
      5.52,      2278,
      5.54,      2305,
      5.56,      2237,
      5.58,      2200,
       5.6,      2183,
      5.62,      2145,
      5.64,      2245,
      5.66,      2263,
      5.68,      2272,
       5.7,      2211,
      5.72,      2234,
      5.74,      2214,
      5.76,      2235,
      5.78,      2189,
       5.8,      2206,
      5.82,      2202,
      5.84,      2250,
      5.86,      2120,
      5.88,      2226,
       5.9,      2165,
      5.92,      2217,
      5.94,      2166,
      5.96,      2194,
      5.98,      2212,
         6,      2148,
      6.02,      2249,
      6.04,      2175,
      6.06,      2177,
      6.08,      2151,
       6.1,      2124,
      6.12,      2144,
      6.14,      2211,
      6.16,      2167,
      6.18,      2070,
       6.2,      2100,
      6.22,      2137,
      6.24,      2092,
      6.26,      2101,
      6.28,      2014,
       6.3,      2033,
      6.32,      2022,
      6.34,      2104,
      6.36,      1980,
      6.38,      1965,
       6.4,      1952,
      6.42,      2030,
      6.44,      2046,
      6.46,      1951,
      6.48,      1971,
       6.5,      1892,
      6.52,      1916,
      6.54,      1901,
      6.56,      1895,
      6.58,      1946,
       6.6,      1948,
      6.62,      1812,
      6.64,      1869,
      6.66,      1843,
      6.68,      1823,
       6.7,      1882,
      6.72,      1836,
      6.74,      1754,
      6.76,      1855,
      6.78,      1807,
       6.8,      1847,
      6.82,      1775,
      6.84,      1796,
      6.86,      1763,
      6.88,      1814,
       6.9,      1871,
      6.92,      1709,
      6.94,      1806,
      6.96,      1783,
      6.98,      1719,
         7,      1702,
      7.02,      1805,
      7.04,      1806,
      7.06,      1763,
      7.08,      1801,
       7.1,      1754,
      7.12,      1818,
      7.14,      1793,
      7.16,      1739,
      7.18,      1810,
       7.2,      1772,
      7.22,      1772,
      7.24,      1729,
      7.26,      1670,
      7.28,      1742,
       7.3,      1667,
      7.32,      1728,
      7.34,      1772,
      7.36,      1697,
      7.38,      1768,
       7.4,      1762,
      7.42,      1762,
      7.44,      1725,
      7.46,      1810,
      7.48,      1705,
       7.5,      1744,
      7.52,      1838,
      7.54,      1645,
      7.56,      1788,
      7.58,      1776,
       7.6,      1781,
      7.62,      1793,
      7.64,      1749,
      7.66,      1816,
      7.68,      1732,
       7.7,      1799,
      7.72,      1772,
      7.74,      1846,
      7.76,      1758,
      7.78,      1822,
       7.8,      1807,
      7.82,      1718,
      7.84,      1791,
      7.86,      1834,
      7.88,      1685,
       7.9,      1695,
      7.92,      1751,
      7.94,      1794,
      7.96,      1774,
      7.98,      1777,
         8,      1796,
      8.02,      1856,
      8.04,      1820,
      8.06,      1806,
      8.08,      1811,
       8.1,      1750,
      8.12,      1780,
      8.14,      1811,
      8.16,      1791,
      8.18,      1780,
       8.2,      1741,
      8.22,      1763,
      8.24,      1765,
      8.26,      1673,
      8.28,      1709,
       8.3,      1719,
      8.32,      1750,
      8.34,      1731,
      8.36,      1755,
      8.38,      1748,
       8.4,      1757,
      8.42,      1686,
      8.44,      1669,
      8.46,      1676,
      8.48,      1709,
       8.5,      1682,
      8.52,      1641,
      8.54,      1647,
      8.56,      1632,
      8.58,      1681,
       8.6,      1714,
      8.62,      1679,
      8.64,      1601,
      8.66,      1591,
      8.68,      1587,
       8.7,      1537,
      8.72,      1659,
      8.74,      1596,
      8.76,      1569,
      8.78,      1594,
       8.8,      1515,
      8.82,      1612,
      8.84,      1422,
      8.86,      1564,
      8.88,      1515,
       8.9,      1538,
      8.92,      1501,
      8.94,      1522,
      8.96,      1617,
      8.98,      1510,
         9,      1528,
      9.02,      1527,
      9.04,      1481,
      9.06,      1484,
      9.08,      1498,
       9.1,      1474,
      9.12,      1446,
      9.14,      1476,
      9.16,      1454,
      9.18,      1467,
       9.2,      1461,
      9.22,      1458,
      9.24,      1415,
      9.26,      1463,
      9.28,      1405,
       9.3,      1425,
      9.32,      1425,
      9.34,      1431,
      9.36,      1333,
      9.38,      1425,
       9.4,      1399,
      9.42,      1366,
      9.44,      1406,
      9.46,      1394,
      9.48,      1387,
       9.5,      1403,
      9.52,      1392,
      9.54,      1423,
      9.56,      1428,
      9.58,      1387,
       9.6,      1414,
      9.62,      1381,
      9.64,      1396,
      9.66,      1361,
      9.68,      1338,
       9.7,      1393,
      9.72,      1401,
      9.74,      1292,
      9.76,      1345,
      9.78,      1323,
       9.8,      1342,
      9.82,      1347,
      9.84,      1358,
      9.86,      1353,
      9.88,      1292,
       9.9,      1368,
      9.92,      1369,
      9.94,      1299,
      9.96,      1323,
      9.98,      1338,
        10,      1326,
     10.02,      1390,
     10.04,      1342,
     10.06,      1326,
     10.08,      1300,
      10.1,      1354,
     10.12,      1285,
     10.14,      1284,
     10.16,      1310,
     10.18,      1291,
      10.2,      1344,
     10.22,      1266,
     10.24,      1307,
     10.26,      1321,
     10.28,      1341,
      10.3,      1230,
     10.32,      1228,
     10.34,      1324,
     10.36,      1351,
     10.38,      1358,
      10.4,      1275,
     10.42,      1319,
     10.44,      1312,
     10.46,      1247,
     10.48,      1291,
      10.5,      1317,
     10.52,      1270,
     10.54,      1319,
     10.56,      1208,
     10.58,      1328,
      10.6,      1292,
     10.62,      1208,
     10.64,      1251,
     10.66,      1302,
     10.68,      1286,
      10.7,      1219,
     10.72,      1284,
     10.74,      1275,
     10.76,      1332,
     10.78,      1276,
      10.8,      1221,
     10.82,      1289,
     10.84,      1273,
     10.86,      1228,
     10.88,      1283,
      10.9,      1314,
     10.92,      1254,
     10.94,      1239,
     10.96,      1240,
     10.98,      1237,
        11,      1192,
     11.02,      1282,
     11.04,      1281,
     11.06,      1249,
     11.08,      1252,
      11.1,      1256,
     11.12,      1169,
     11.14,      1196,
     11.16,      1215,
     11.18,      1192,
      11.2,      1205,
     11.22,      1198,
     11.24,      1160,
     11.26,      1212,
     11.28,      1216,
      11.3,      1133,
     11.32,      1206,
     11.34,      1133,
     11.36,      1178,
     11.38,      1168,
      11.4,      1162,
     11.42,      1196,
     11.44,      1137,
     11.46,      1203,
     11.48,      1170,
      11.5,      1169,
     11.52,      1216,
     11.54,      1206,
     11.56,      1236,
     11.58,      1198,
      11.6,      1203,
     11.62,      1183,
     11.64,      1102,
     11.66,      1143,
     11.68,      1183,
      11.7,      1127,
     11.72,      1158,
     11.74,      1164,
     11.76,      1152,
     11.78,      1136,
      11.8,      1155,
     11.82,      1124,
     11.84,      1109,
     11.86,      1153,
     11.88,      1172,
      11.9,      1175,
     11.92,      1155,
     11.94,      1093,
     11.96,      1110,
     11.98,      1179,
        12,      1092,
     12.02,      1148,
     12.04,      1080,
     12.06,      1153,
     12.08,      1163,
      12.1,      1166,
     12.12,      1153,
     12.14,      1120,
     12.16,      1163,
     12.18,      1203,
      12.2,      1208,
     12.22,      1161,
     12.24,      1164,
     12.26,      1156,
     12.28,      1143,
      12.3,      1126,
     12.32,      1102,
     12.34,      1115,
     12.36,      1125,
     12.38,      1149,
      12.4,      1139,
     12.42,      1152,
     12.44,      1090,
     12.46,      1072,
     12.48,      1119,
      12.5,      1156,
     12.52,      1102,
     12.54,      1063,
     12.56,      1103,
     12.58,      1126,
      12.6,      1139,
     12.62,      1055,
     12.64,      1129,
     12.66,      1098,
     12.68,      1058,
      12.7,      1065,
     12.72,      1083,
     12.74,      1073,
     12.76,      1111,
     12.78,      1059,
      12.8,      1078,
     12.82,      1107,
     12.84,      1072,
     12.86,      1066,
     12.88,      1045,
      12.9,      1045,
     12.92,      1093,
     12.94,      1062,
     12.96,       972,
     12.98,      1095,
        13,      1100,
     13.02,      1068,
     13.04,      1021,
     13.06,      1080,
     13.08,      1030,
      13.1,      1041,
     13.12,      1042,
     13.14,      1082,
     13.16,       993,
     13.18,      1000,
      13.2,      1033,
     13.22,       999,
     13.24,       987,
     13.26,       968,
     13.28,       988,
      13.3,      1039,
     13.32,      1058,
     13.34,       993,
     13.36,       988,
     13.38,       990,
      13.4,      1015,
     13.42,       960,
     13.44,      1011,
     13.46,      1019,
     13.48,       971,
      13.5,      1004,
     13.52,       969,
     13.54,       972,
     13.56,       948,
     13.58,       991,
      13.6,       972,
     13.62,       949,
     13.64,       991,
     13.66,       945,
     13.68,       918,
      13.7,       947,
     13.72,       980,
     13.74,       932,
     13.76,       912,
     13.78,       902,
      13.8,       957,
     13.82,       876,
     13.84,       940,
     13.86,       968,
     13.88,       937,
      13.9,       981,
     13.92,       911,
     13.94,       941,
     13.96,       947,
     13.98,       936,
        14,       888,
     14.02,       903,
     14.04,       898,
     14.06,       866,
     14.08,       934,
      14.1,       869,
     14.12,       923,
     14.14,       913,
     14.16,       861,
     14.18,       942,
      14.2,       920,
     14.22,       888,
     14.24,       892,
     14.26,       889,
     14.28,       860,
      14.3,       923,
     14.32,       922,
     14.34,       921,
     14.36,       918,
     14.38,       931,
      14.4,       915,
     14.42,       916,
     14.44,       948,
     14.46,       897,
     14.48,       863,
      14.5,       879,
     14.52,       889,
     14.54,       892,
     14.56,       891,
     14.58,       851,
      14.6,       890,
     14.62,       842,
     14.64,       829,
     14.66,       917,
     14.68,       892,
      14.7,       823,
     14.72,       873,
     14.74,       835,
     14.76,       837,
     14.78,       922,
      14.8,       829,
     14.82,       887,
     14.84,       828,
     14.86,       878,
     14.88,       828,
      14.9,       816,
     14.92,       882,
     14.94,       809,
     14.96,       811,
     14.98,       833,
        15,       843,
     15.02,       838,
     15.04,       862,
     15.06,       784,
     15.08,       838,
      15.1,       829,
     15.12,       867,
     15.14,       841,
     15.16,       871,
     15.18,       848,
      15.2,       834,
     15.22,       758,
     15.24,       828,
     15.26,       786,
     15.28,       812,
      15.3,       813,
     15.32,       816,
     15.34,       800,
     15.36,       796,
     15.38,       736,
      15.4,       806,
     15.42,       806,
     15.44,       824,
     15.46,       772,
     15.48,       807,
      15.5,       776,
     15.52,       763,
     15.54,       807,
     15.56,       809,
     15.58,       804,
      15.6,       775,
     15.62,       758,
     15.64,       776,
     15.66,       741,
     15.68,       793,
      15.7,       812,
     15.72,       797,
     15.74,       782,
     15.76,       794,
     15.78,       738,
      15.8,       762,
     15.82,       802,
     15.84,       791,
     15.86,       823,
     15.88,       766,
      15.9,       786,
     15.92,       762,
     15.94,       784,
     15.96,       754,
     15.98,       704,
        16,       763,
     16.02,       807,
     16.04,       761,
     16.06,       754,
     16.08,       755,
      16.1,       788,
     16.12,       801,
     16.14,       773,
     16.16,       775,
     16.18,       791,
      16.2,       777,
     16.22,       769,
     16.24,       781,
     16.26,       755,
     16.28,       782,
      16.3,       785,
     16.32,       732,
     16.34,       781,
     16.36,       783,
     16.38,       782,
      16.4,       771,
     16.42,       757,
     16.44,       779,
     16.46,       776,
     16.48,       741,
      16.5,       818,
     16.52,       749,
     16.54,       792,
     16.56,       799,
     16.58,       708,
      16.6,       807,
     16.62,       804,
     16.64,       760,
     16.66,       804,
     16.68,       818,
      16.7,       748,
     16.72,       817,
     16.74,       762,
     16.76,       797,
     16.78,       854,
      16.8,       815,
     16.82,       744,
     16.84,       799,
     16.86,       773,
     16.88,       812,
      16.9,       800,
     16.92,       814,
     16.94,       803,
     16.96,       777,
     16.98,       779,
        17,       758,
     17.02,       814,
     17.04,       808,
     17.06,       764,
     17.08,       765,
      17.1,       797,
     17.12,       754,
     17.14,       773,
     17.16,       765,
     17.18,       747,
      17.2,       737,
     17.22,       704,
     17.24,       754,
     17.26,       763,
     17.28,       726,
      17.3,       711,
     17.32,       745,
     17.34,       762,
     17.36,       749,
     17.38,       753,
      17.4,       737,
     17.42,       748,
     17.44,       734,
     17.46,       731,
     17.48,       696,
      17.5,       701,
     17.52,       694,
     17.54,       790,
     17.56,       711,
     17.58,       723,
      17.6,       703,
     17.62,       682,
     17.64,       735,
     17.66,       676,
     17.68,       732,
      17.7,       719,
     17.72,       708,
     17.74,       766,
     17.76,       718,
     17.78,       718,
      17.8,       714,
     17.82,       711,
     17.84,       672,
     17.86,       670,
     17.88,       680,
      17.9,       708,
     17.92,       645,
     17.94,       659,
     17.96,       626,
     17.98,       609,
        18,       716,
     18.02,       669,
     18.04,       636,
     18.06,       633,
     18.08,       699,
      18.1,       627,
     18.12,       624,
     18.14,       652,
     18.16,       618,
     18.18,       620,
      18.2,       672,
     18.22,       605,
     18.24,       654,
     18.26,       629,
     18.28,       657,
      18.3,       640,
     18.32,       645,
     18.34,       664,
     18.36,       595,
     18.38,       602,
      18.4,       647,
     18.42,       627,
     18.44,       595,
     18.46,       614,
     18.48,       581,
      18.5,       632,
     18.52,       579,
     18.54,       597,
     18.56,       608,
     18.58,       622,
      18.6,       636,
     18.62,       598,
     18.64,       608,
     18.66,       627,
     18.68,       626,
      18.7,       649,
     18.72,       614,
     18.74,       639,
     18.76,       601,
     18.78,       585,
      18.8,       561,
     18.82,       600,
     18.84,       580,
     18.86,       606,
     18.88,       605,
      18.9,       543,
     18.92,       542,
     18.94,       573,
     18.96,       577,
     18.98,       625,
        19,       559,
     19.02,       606,
     19.04,       557,
     19.06,       571,
     19.08,       598,
      19.1,       606,
     19.12,       523,
     19.14,       582,
     19.16,       576,
     19.18,       515,
      19.2,       569,
     19.22,       582,
     19.24,       562,
     19.26,       535,
     19.28,       581,
      19.3,       555,
     19.32,       570,
     19.34,       529,
     19.36,       530,
     19.38,       573,
      19.4,       586,
     19.42,       507,
     19.44,       563,
     19.46,       571,
     19.48,       546,
      19.5,       583,
     19.52,       515,
     19.54,       560,
     19.56,       540,
     19.58,       535,
      19.6,       556,
     19.62,       516,
     19.64,       550,
     19.66,       545,
     19.68,       513,
      19.7,       537,
     19.72,       562,
     19.74,       548,
     19.76,       526,
     19.78,       543,
      19.8,       548,
     19.82,       568,
     19.84,       513,
     19.86,       490,
     19.88,       549,
      19.9,       536,
     19.92,       542,
     19.94,       462,
     19.96,       561,
     19.98,       558,
        20,       511,
     20.02,       508,
     20.04,       469,
     20.06,       508,
     20.08,       514,
      20.1,       533,
     20.12,       555,
     20.14,       520,
     20.16,       515,
     20.18,       500,
      20.2,       494,
     20.22,       547,
     20.24,       543,
     20.26,       503,
     20.28,       516,
      20.3,       494,
     20.32,       511,
     20.34,       512,
     20.36,       497,
     20.38,       494,
      20.4,       492,
     20.42,       474,
     20.44,       522,
     20.46,       517,
     20.48,       485,
      20.5,       467,
     20.52,       508,
     20.54,       490,
     20.56,       506,
     20.58,       539,
      20.6,       458,
     20.62,       537,
     20.64,       491,
     20.66,       497,
     20.68,       532,
      20.7,       453,
     20.72,       524,
     20.74,       471,
     20.76,       497,
     20.78,       470,
      20.8,       515,
     20.82,       473,
     20.84,       431,
     20.86,       455,
     20.88,       472,
      20.9,       487,
     20.92,       514,
     20.94,       480,
     20.96,       490,
     20.98,       434,
        21,       483,
     21.02,       502,
     21.04,       501,
     21.06,       490,
     21.08,       473,
      21.1,       501,
     21.12,       460,
     21.14,       466,
     21.16,       471,
     21.18,       476,
      21.2,       438,
     21.22,       478,
     21.24,       515,
     21.26,       488,
     21.28,       457,
      21.3,       478,
     21.32,       461,
     21.34,       444,
     21.36,       472,
     21.38,       460,
      21.4,       519,
     21.42,       458,
     21.44,       478,
     21.46,       503,
     21.48,       436,
      21.5,       493,
     21.52,       451,
     21.54,       453,
     21.56,       486,
     21.58,       482,
      21.6,       450,
     21.62,       423,
     21.64,       465,
     21.66,       452,
     21.68,       422,
      21.7,       466,
     21.72,       432,
     21.74,       414,
     21.76,       438,
     21.78,       436,
      21.8,       451,
     21.82,       489,
     21.84,       449,
     21.86,       435,
     21.88,       448,
      21.9,       452,
     21.92,       449,
     21.94,       444,
     21.96,       430,
     21.98,       437,
        22,       424,
     22.02,       440,
     22.04,       420,
     22.06,       432,
     22.08,       476,
      22.1,       422,
     22.12,       436,
     22.14,       453,
     22.16,       466,
     22.18,       436,
      22.2,       456,
     22.22,       448,
     22.24,       440,
     22.26,       441,
     22.28,       434,
      22.3,       431,
     22.32,       445,
     22.34,       457,
     22.36,       433,
     22.38,       394,
      22.4,       434,
     22.42,       407,
     22.44,       421,
     22.46,       402,
     22.48,       430,
      22.5,       415,
     22.52,       443,
     22.54,       408,
     22.56,       398,
     22.58,       431,
      22.6,       415,
     22.62,       417,
     22.64,       421,
     22.66,       434,
     22.68,       397,
      22.7,       392,
     22.72,       415,
     22.74,       420,
     22.76,       424,
     22.78,       419,
      22.8,       415,
     22.82,       397,
     22.84,       365,
     22.86,       388,
     22.88,       405,
      22.9,       395,
     22.92,       432,
     22.94,       390,
     22.96,       371,
     22.98,       421,
        23,       383,
     23.02,       431,
     23.04,       398,
     23.06,       399,
     23.08,       394,
      23.1,       403,
     23.12,       417,
     23.14,       388,
     23.16,       400,
     23.18,       412,
      23.2,       389,
     23.22,       388,
     23.24,       401,
     23.26,       390,
     23.28,       378,
      23.3,       354,
     23.32,       399,
     23.34,       393,
     23.36,       348,
     23.38,       409,
      23.4,       425,
     23.42,       399,
     23.44,       379,
     23.46,       404,
     23.48,       397,
      23.5,       381,
     23.52,       414,
     23.54,       361,
     23.56,       408,
     23.58,       435,
      23.6,       382,
     23.62,       374,
     23.64,       347,
     23.66,       386,
     23.68,       370,
      23.7,       364,
     23.72,       390,
     23.74,       368,
     23.76,       414,
     23.78,       390,
      23.8,       359,
     23.82,       370,
     23.84,       383,
     23.86,       367,
     23.88,       371,
      23.9,       398,
     23.92,       381,
     23.94,       400,
     23.96,       383,
     23.98,       377,
        24,       405,
     24.02,       358,
     24.04,       364,
     24.06,       428,
     24.08,       361,
      24.1,       393,
     24.12,       390,
     24.14,       378,
     24.16,       385,
     24.18,       382,
      24.2,       405,
     24.22,       350,
     24.24,       361,
     24.26,       338,
     24.28,       368,
      24.3,       349,
     24.32,       378,
     24.34,       364,
     24.36,       364,
     24.38,       387,
      24.4,       350,
     24.42,       359,
     24.44,       360,
     24.46,       377,
     24.48,       325,
      24.5,       348,
     24.52,       327,
     24.54,       361,
     24.56,       378,
     24.58,       361,
      24.6,       365,
     24.62,       390,
     24.64,       341,
     24.66,       361,
     24.68,       376,
      24.7,       361,
     24.72,       371,
     24.74,       358,
     24.76,       348,
     24.78,       327,
      24.8,       360,
     24.82,       358,
     24.84,       390,
     24.86,       371,
     24.88,       372,
      24.9,       407,
     24.92,       399,
     24.94,       345,
     24.96,       379,
     24.98,       357,
        25,       387,
     25.02,       378,
     25.04,       389,
     25.06,       367,
     25.08,       398,
      25.1,       394,
     25.12,       421,
     25.14,       379,
     25.16,       382,
     25.18,       403,
      25.2,       424,
     25.22,       436,
     25.24,       425,
     25.26,       432,
     25.28,       445,
      25.3,       446,
     25.32,       472,
     25.34,       464,
     25.36,       457,
     25.38,       429,
      25.4,       468,
     25.42,       460,
     25.44,       508,
     25.46,       446,
     25.48,       482,
      25.5,       470,
     25.52,       453,
     25.54,       452,
     25.56,       506,
     25.58,       508,
      25.6,       457,
     25.62,       481,
     25.64,       461,
     25.66,       423,
     25.68,       485,
      25.7,       441,
     25.72,       465,
     25.74,       457,
     25.76,       421,
     25.78,       447,
      25.8,       447,
     25.82,       434,
     25.84,       455,
     25.86,       431,
     25.88,       400,
      25.9,       386,
     25.92,       395,
     25.94,       412,
     25.96,       439,
     25.98,       424,
        26,       424,
     26.02,       390,
     26.04,       415,
     26.06,       413,
     26.08,       418,
      26.1,       406,
     26.12,       384,
     26.14,       392,
     26.16,       380,
     26.18,       383,
      26.2,       400,
     26.22,       392,
     26.24,       417,
     26.26,       398,
     26.28,       384,
      26.3,       387,
     26.32,       371,
     26.34,       363,
     26.36,       349,
     26.38,       377,
      26.4,       368,
     26.42,       395,
     26.44,       374,
     26.46,       382,
     26.48,       392,
      26.5,       389,
     26.52,       390,
     26.54,       365,
     26.56,       361,
     26.58,       342,
      26.6,       346,
     26.62,       338,
     26.64,       349,
     26.66,       373,
     26.68,       374,
      26.7,       371,
     26.72,       310,
     26.74,       331,
     26.76,       362,
     26.78,       317,
      26.8,       332,
     26.82,       316,
     26.84,       340,
     26.86,       322,
     26.88,       359,
      26.9,       315,
     26.92,       315,
     26.94,       308,
     26.96,       327,
     26.98,       304,
        27,       284,
     27.02,       335,
     27.04,       298,
     27.06,       299,
     27.08,       292,
      27.1,       313,
     27.12,       303,
     27.14,       291,
     27.16,       311,
     27.18,       306,
      27.2,       298,
     27.22,       324,
     27.24,       257,
     27.26,       305,
     27.28,       305,
      27.3,       295,
     27.32,       295,
     27.34,       275,
     27.36,       271,
     27.38,       297,
      27.4,       287,
     27.42,       278,
     27.44,       260,
     27.46,       294,
     27.48,       275,
      27.5,       301,
     27.52,       282,
     27.54,       260,
     27.56,       309,
     27.58,       256,
      27.6,       287,
     27.62,       311,
     27.64,       267,
     27.66,       274,
     27.68,       280,
      27.7,       279,
     27.72,       259,
     27.74,       281,
     27.76,       276,
     27.78,       270,
      27.8,       249,
     27.82,       275,
     27.84,       279,
     27.86,       258,
     27.88,       274,
      27.9,       232,
     27.92,       278,
     27.94,       230,
     27.96,       299,
     27.98,       274,
        28,       290,
     28.02,       275,
     28.04,       290,
     28.06,       278,
     28.08,       275,
      28.1,       254,
     28.12,       235,
     28.14,       246,
     28.16,       283,
     28.18,       275,
      28.2,       254,
     28.22,       264,
     28.24,       246,
     28.26,       257,
     28.28,       277,
      28.3,       244,
     28.32,       260,
     28.34,       281,
     28.36,       257,
     28.38,       231,
      28.4,       245,
     28.42,       255,
     28.44,       252,
     28.46,       245,
     28.48,       253,
      28.5,       260,
     28.52,       274,
     28.54,       251,
     28.56,       228,
     28.58,       253,
      28.6,       283,
     28.62,       276,
     28.64,       227,
     28.66,       272,
     28.68,       271,
      28.7,       282,
     28.72,       265,
     28.74,       266,
     28.76,       274,
     28.78,       252,
      28.8,       267,
     28.82,       259,
     28.84,       251,
     28.86,       257,
     28.88,       265,
      28.9,       249,
     28.92,       240,
     28.94,       291,
     28.96,       257,
     28.98,       234,
        29,       240,
     29.02,       265,
     29.04,       249,
     29.06,       231,
     29.08,       218,
      29.1,       266,
     29.12,       235,
     29.14,       246,
     29.16,       209,
     29.18,       267,
      29.2,       204,
     29.22,       253,
     29.24,       274,
     29.26,       270,
     29.28,       230,
      29.3,       238,
     29.32,       276,
     29.34,       245,
     29.36,       252,
     29.38,       267,
      29.4,       263,
     29.42,       250,
     29.44,       237,
     29.46,       233,
     29.48,       231,
      29.5,       251,
     29.52,       223,
     29.54,       249,
     29.56,       233,
     29.58,       241,
      29.6,       222,
     29.62,       224,
     29.64,       212,
     29.66,       222,
     29.68,       247,
      29.7,       246,
     29.72,       238,
     29.74,       222,
     29.76,       260,
     29.78,       234,
      29.8,       257,
     29.82,       235,
     29.84,       261,
     29.86,       234,
     29.88,       234,
      29.9,       231,
     29.92,       215,
     29.94,       258,
     29.96,       253,
     29.98,       222,
        30,       207,
     30.02,       226,
     30.04,       235,
     30.06,       234,
     30.08,       215,
      30.1,       203,
     30.12,       243,
     30.14,       229,
     30.16,       218,
     30.18,       224,
      30.2,       236,
     30.22,       235,
     30.24,       206,
     30.26,       241,
     30.28,       244,
      30.3,       217,
     30.32,       231,
     30.34,       247,
     30.36,       193,
     30.38,       231,
      30.4,       215,
     30.42,       199,
     30.44,       203,
     30.46,       214,
     30.48,       230,
      30.5,       214,
     30.52,       226,
     30.54,       187,
     30.56,       214,
     30.58,       208,
      30.6,       203,
     30.62,       212,
     30.64,       200,
     30.66,       201,
     30.68,       204,
      30.7,       201,
     30.72,       203,
     30.74,       207,
     30.76,       207,
     30.78,       219,
      30.8,       220,
     30.82,       209,
     30.84,       203,
     30.86,       219,
     30.88,       227,
      30.9,       216,
     30.92,       181,
     30.94,       225,
     30.96,       212,
     30.98,       197,
        31,       196,
     31.02,       194,
     31.04,       198,
     31.06,       226,
     31.08,       216,
      31.1,       224,
     31.12,       187,
     31.14,       190,
     31.16,       207,
     31.18,       207,
      31.2,       206,
     31.22,       200,
     31.24,       193,
     31.26,       191,
     31.28,       208,
      31.3,       204,
     31.32,       178,
     31.34,       205,
     31.36,       175,
     31.38,       198,
      31.4,       200,
     31.42,       197,
     31.44,       203,
     31.46,       194,
     31.48,       174,
      31.5,       213,
     31.52,       184,
     31.54,       196,
     31.56,       190,
     31.58,       198,
      31.6,       204,
     31.62,       203,
     31.64,       213,
     31.66,       194,
     31.68,       197,
      31.7,       181,
     31.72,       194,
     31.74,       180,
     31.76,       211,
     31.78,       188,
      31.8,       196,
     31.82,       190,
     31.84,       214,
     31.86,       206,
     31.88,       177,
      31.9,       170,
     31.92,       217,
     31.94,       181,
     31.96,       204,
     31.98,       206,
        32,       191,
     32.02,       186,
     32.04,       156,
     32.06,       183,
     32.08,       185,
      32.1,       153,
     32.12,       204,
     32.14,       212,
     32.16,       166,
     32.18,       169,
      32.2,       199,
     32.22,       178,
     32.24,       191,
     32.26,       186,
     32.28,       183,
      32.3,       178,
     32.32,       189,
     32.34,       197,
     32.36,       177,
     32.38,       174,
      32.4,       198,
     32.42,       187,
     32.44,       176,
     32.46,       189,
     32.48,       182,
      32.5,       194,
     32.52,       203,
     32.54,       184,
     32.56,       181,
     32.58,       189,
      32.6,       194,
     32.62,       188,
     32.64,       183,
     32.66,       151,
     32.68,       166,
      32.7,       189,
     32.72,       185,
     32.74,       160,
     32.76,       192,
     32.78,       165,
      32.8,       156,
     32.82,       172,
     32.84,       183,
     32.86,       180,
     32.88,       176,
      32.9,       181,
     32.92,       176,
     32.94,       167,
     32.96,       179,
     32.98,       184,
        33,       174,
     33.02,       181,
     33.04,       196,
     33.06,       169,
     33.08,       179,
      33.1,       161,
     33.12,       185,
     33.14,       181,
     33.16,       177,
     33.18,       146,
      33.2,       156,
     33.22,       189,
     33.24,       174,
     33.26,       167,
     33.28,       155,
      33.3,       163,
     33.32,       165,
     33.34,       189,
     33.36,       172,
     33.38,       173,
      33.4,       177,
     33.42,       166,
     33.44,       183,
     33.46,       171,
     33.48,       172,
      33.5,       171,
     33.52,       172,
     33.54,       166,
     33.56,       146,
     33.58,       157,
      33.6,       183,
     33.62,       171,
     33.64,       182,
     33.66,       173,
     33.68,       170,
      33.7,       157,
     33.72,       177,
     33.74,       149,
     33.76,       164,
     33.78,       185,
      33.8,       175,
     33.82,       162,
     33.84,       160,
     33.86,       174,
     33.88,       146,
      33.9,       171,
     33.92,       145,
     33.94,       154,
     33.96,       160,
     33.98,       201,
        34,       179,
     34.02,       157,
     34.04,       160,
     34.06,       179,
     34.08,       139,
      34.1,       156,
     34.12,       161,
     34.14,       156,
     34.16,       164,
     34.18,       143,
      34.2,       156,
     34.22,       175,
     34.24,       171,
     34.26,       142,
     34.28,       162,
      34.3,       147,
     34.32,       152,
     34.34,       154,
     34.36,       175,
     34.38,       167,
      34.4,       149,
     34.42,       163,
     34.44,       169,
     34.46,       177,
     34.48,       171,
      34.5,       155,
     34.52,       144,
     34.54,       161,
     34.56,       141,
     34.58,       144,
      34.6,       161,
     34.62,       172,
     34.64,       148,
     34.66,       158,
     34.68,       157,
      34.7,       157,
     34.72,       155,
     34.74,       152,
     34.76,       170,
     34.78,       143,
      34.8,       153,
     34.82,       134,
     34.84,       167,
     34.86,       159,
     34.88,       150,
      34.9,       167,
     34.92,       172,
     34.94,       169,
     34.96,       165,
     34.98,       162,
        35,       170,
     35.02,       148,
     35.04,       165,
     35.06,       138,
     35.08,       158,
      35.1,       155,
     35.12,       158,
     35.14,       156,
     35.16,       147,
     35.18,       138,
      35.2,       165,
     35.22,       149,
     35.24,       165,
     35.26,       139,
     35.28,       163,
      35.3,       143,
     35.32,       146,
     35.34,       158,
     35.36,       141,
     35.38,       155,
      35.4,       147,
     35.42,       148,
     35.44,       164,
     35.46,       154,
     35.48,       150,
      35.5,       159,
     35.52,       138,
     35.54,       144,
     35.56,       147,
     35.58,       144,
      35.6,       160,
     35.62,       157,
     35.64,       140,
     35.66,       152,
     35.68,       174,
      35.7,       147,
     35.72,       145,
     35.74,       157,
     35.76,       143,
     35.78,       139,
      35.8,       142,
     35.82,       137,
     35.84,       145,
     35.86,       119,
     35.88,       150,
      35.9,       133,
     35.92,       159,
     35.94,       153,
     35.96,       175,
     35.98,       124,
        36,       145,
     36.02,       131,
     36.04,       142,
     36.06,       139,
     36.08,       134,
      36.1,       162,
     36.12,       152,
     36.14,       161,
     36.16,       135,
     36.18,       150,
      36.2,       157,
     36.22,       136,
     36.24,       136,
     36.26,       133,
     36.28,       133,
      36.3,       127,
     36.32,       145,
     36.34,       132,
     36.36,       140,
     36.38,       131,
      36.4,       128,
     36.42,       149,
     36.44,       127,
     36.46,       149,
     36.48,       148,
      36.5,       122,
     36.52,       133,
     36.54,       138,
     36.56,       142,
     36.58,       129,
      36.6,       117,
     36.62,       122,
     36.64,       113,
     36.66,       140,
     36.68,       134,
      36.7,       128,
     36.72,       122,
     36.74,       138,
     36.76,       131,
     36.78,       116,
      36.8,       109,
     36.82,       121,
     36.84,       129,
     36.86,       136,
     36.88,       128,
      36.9,       115,
     36.92,       131,
     36.94,       134,
     36.96,       131,
     36.98,       130,
        37,       137,
     37.02,       117,
     37.04,       144,
     37.06,       133,
     37.08,       122,
      37.1,       136,
     37.12,       141,
     37.14,       126,
     37.16,       123,
     37.18,       124,
      37.2,       106,
     37.22,       166,
     37.24,       127,
     37.26,       129,
     37.28,       117,
      37.3,       137,
     37.32,       136,
     37.34,       125,
     37.36,       121,
     37.38,       106,
      37.4,       131,
     37.42,       117,
     37.44,       110,
     37.46,       113,
     37.48,       111,
      37.5,       114,
     37.52,       119,
     37.54,       130,
     37.56,       145,
     37.58,       137,
      37.6,       108,
     37.62,       119,
     37.64,       121,
     37.66,       125,
     37.68,       128,
      37.7,       125,
     37.72,       128,
     37.74,       130,
     37.76,       115,
     37.78,       111,
      37.8,       120,
     37.82,       115,
     37.84,       133,
     37.86,       115,
     37.88,       131,
      37.9,       109,
     37.92,       133,
     37.94,       113,
     37.96,       147,
     37.98,       128,
        38,       142,
     38.02,       112,
     38.04,       132,
     38.06,       122,
     38.08,       138,
      38.1,       118,
     38.12,       122,
     38.14,       114,
     38.16,       135,
     38.18,       130,
      38.2,       116,
     38.22,       111,
     38.24,       119,
     38.26,       113,
     38.28,       131,
      38.3,       113,
     38.32,       114,
     38.34,       125,
     38.36,       128,
     38.38,       126,
      38.4,       106,
     38.42,       139,
     38.44,       132,
     38.46,       126,
     38.48,       110,
      38.5,       115,
     38.52,       125,
     38.54,       121,
     38.56,       139,
     38.58,       121,
      38.6,       131,
     38.62,       127,
     38.64,       142,
     38.66,       137,
     38.68,       138,
      38.7,       116,
     38.72,       105,
     38.74,       123,
     38.76,       127,
     38.78,       125,
      38.8,       104,
     38.82,       111,
     38.84,       121,
     38.86,       118,
     38.88,       125,
      38.9,       114,
     38.92,       122,
     38.94,       135,
     38.96,       107,
     38.98,       108,
        39,       113,
     39.02,       125,
     39.04,        99,
     39.06,       118,
     39.08,       115,
      39.1,       110,
     39.12,       119,
     39.14,       108,
     39.16,       120,
     39.18,       129,
      39.2,       100,
     39.22,       117,
     39.24,       116,
     39.26,       119,
     39.28,       122,
      39.3,       127,
     39.32,       113,
     39.34,       117,
     39.36,       124,
     39.38,       103,
      39.4,       118,
     39.42,       113,
     39.44,       116,
     39.46,       107,
     39.48,       119,
      39.5,       124,
     39.52,       135,
     39.54,       126,
     39.56,       118,
     39.58,       102,
      39.6,       116,
     39.62,       102,
     39.64,       105,
     39.66,       126,
     39.68,       122,
      39.7,       124,
     39.72,       127,
     39.74,       115,
     39.76,       107,
     39.78,       103,
      39.8,       116,
     39.82,        96,
     39.84,       114,
     39.86,       107,
     39.88,       115,
      39.9,       106,
     39.92,       118,
     39.94,       110,
     39.96,       124,
     39.98,        95,
        40,       107,
     40.02,       105,
     40.04,       109,
     40.06,       105,
     40.08,       105,
      40.1,       106,
     40.12,        98,
     40.14,        98,
     40.16,       107,
     40.18,       101,
      40.2,       116,
     40.22,       110,
     40.24,       118,
     40.26,       100,
     40.28,        98,
      40.3,       106,
     40.32,       120,
     40.34,        93,
     40.36,       118,
     40.38,        99,
      40.4,        93,
     40.42,       101,
     40.44,       107,
     40.46,        99,
     40.48,       105,
      40.5,       113,
     40.52,       110,
     40.54,       111,
     40.56,       106,
     40.58,        98,
      40.6,       130,
     40.62,       101,
     40.64,       109,
     40.66,       104,
     40.68,       115,
      40.7,        99,
     40.72,       106,
     40.74,       110,
     40.76,       122,
     40.78,       103,
      40.8,       109,
     40.82,       100,
     40.84,       106,
     40.86,       120,
     40.88,        98,
      40.9,       108,
     40.92,        98,
     40.94,       113,
     40.96,       102,
     40.98,       106,
        41,       100,
     41.02,        99,
     41.04,       104,
     41.06,        99,
     41.08,        93,
      41.1,       106,
     41.12,        94,
     41.14,       113,
     41.16,       102,
     41.18,       110,
      41.2,       103,
     41.22,       108,
     41.24,       101,
     41.26,       101,
     41.28,       114,
      41.3,       111,
     41.32,       100,
     41.34,       107,
     41.36,        91,
     41.38,       110,
      41.4,       109,
     41.42,       119,
     41.44,       107,
     41.46,       103,
     41.48,        93,
      41.5,       101,
     41.52,       104,
     41.54,       112,
     41.56,       110,
     41.58,       108,
      41.6,       126,
     41.62,       113,
     41.64,       104,
     41.66,       128,
     41.68,        96,
      41.7,        90,
     41.72,        91,
     41.74,       104,
     41.76,        95,
     41.78,       133,
      41.8,        90,
     41.82,       109,
     41.84,       110,
     41.86,       101,
     41.88,       121,
      41.9,       106,
     41.92,       136,
     41.94,        96,
     41.96,       109,
     41.98,        97,
        42,        78,
     42.02,       105,
     42.04,       118,
     42.06,       104,
     42.08,        97,
      42.1,       114,
     42.12,       116,
     42.14,       133,
     42.16,       107,
     42.18,       108,
      42.2,       134,
     42.22,       100,
     42.24,        94,
     42.26,       106,
     42.28,       104,
      42.3,       106,
     42.32,        94,
     42.34,       111,
     42.36,        97,
     42.38,       115,
      42.4,       101,
     42.42,       108,
     42.44,       105,
     42.46,        98,
     42.48,       106,
      42.5,        99,
     42.52,       107,
     42.54,        91,
     42.56,       106,
     42.58,       100,
      42.6,       121,
     42.62,       105,
     42.64,        99,
     42.66,       100,
     42.68,        97,
      42.7,       108,
     42.72,       110,
     42.74,        99,
     42.76,       100,
     42.78,       110,
      42.8,       125,
     42.82,       105,
     42.84,       111,
     42.86,       111,
     42.88,       103,
      42.9,       109,
     42.92,       119,
     42.94,       134,
     42.96,       116,
     42.98,        93,
        43,       115,
     43.02,       108,
     43.04,       117,
     43.06,        90,
     43.08,       121,
      43.1,       111,
     43.12,       130,
     43.14,       112,
     43.16,       107,
     43.18,       121,
      43.2,       112,
     43.22,       124,
     43.24,       114,
     43.26,       127,
     43.28,       111,
      43.3,       134,
     43.32,       136,
     43.34,       122,
     43.36,       121,
     43.38,       141,
      43.4,       146,
     43.42,       139,
     43.44,       138,
     43.46,       135,
     43.48,       131,
      43.5,       133,
     43.52,       147,
     43.54,       157,
     43.56,       130,
     43.58,       138,
      43.6,       149,
     43.62,       143,
     43.64,       158,
     43.66,       149,
     43.68,       141,
      43.7,       145,
     43.72,       142,
     43.74,       123,
     43.76,       162,
     43.78,       150,
      43.8,       153,
     43.82,       157,
     43.84,       153,
     43.86,       157,
     43.88,       197,
      43.9,       144,
     43.92,       177,
     43.94,       159,
     43.96,       177,
     43.98,       147,
        44,       143,
     44.02,       181,
     44.04,       184,
     44.06,       172,
     44.08,       137,
      44.1,       172,
     44.12,       168,
     44.14,       191,
     44.16,       177,
     44.18,       189,
      44.2,       161,
     44.22,       170,
     44.24,       169,
     44.26,       147,
     44.28,       162,
      44.3,       172,
     44.32,       180,
     44.34,       163,
     44.36,       169,
     44.38,       189,
      44.4,       166,
     44.42,       172,
     44.44,       188,
     44.46,       185,
     44.48,       178,
      44.5,       194,
     44.52,       160,
     44.54,       173,
     44.56,       157,
     44.58,       156,
      44.6,       156,
     44.62,       185,
     44.64,       176,
     44.66,       167,
     44.68,       198,
      44.7,       173,
     44.72,       190,
     44.74,       165,
     44.76,       172,
     44.78,       175,
      44.8,       186,
     44.82,       174,
     44.84,       170,
     44.86,       183,
     44.88,       163,
      44.9,       158,
     44.92,       179,
     44.94,       211,
     44.96,       172,
     44.98,       174,
        45,       157,
     45.02,       150,
     45.04,       164,
     45.06,       174,
     45.08,       157,
      45.1,       153,
     45.12,       168,
     45.14,       165,
     45.16,       155,
     45.18,       138,
      45.2,       147,
     45.22,       172,
     45.24,       161,
     45.26,       164,
     45.28,       145,
      45.3,       140,
     45.32,       143,
     45.34,       154,
     45.36,       144,
     45.38,       140,
      45.4,       140,
     45.42,       145,
     45.44,       118,
     45.46,       131,
     45.48,       138,
      45.5,       127,
     45.52,       135,
     45.54,       153,
     45.56,       130,
     45.58,       137,
      45.6,       136,
     45.62,       123,
     45.64,       145,
     45.66,       135,
     45.68,       122,
      45.7,       135,
     45.72,       125,
     45.74,       127,
     45.76,       123,
     45.78,       115,
      45.8,       107,
     45.82,       122,
     45.84,       100,
     45.86,       105,
     45.88,       123,
      45.9,       123,
     45.92,       114,
     45.94,       100,
     45.96,       107,
     45.98,       109,
        46,       115,
     46.02,        92,
     46.04,       102,
     46.06,       112,
     46.08,       104,
      46.1,       100,
     46.12,        98,
     46.14,        91,
     46.16,        91,
     46.18,       108,
      46.2,        86,
     46.22,       104,
     46.24,       109,
     46.26,       108,
     46.28,        87,
      46.3,        94,
     46.32,        96,
     46.34,        82,
     46.36,        71,
     46.38,        90,
      46.4,        74,
     46.42,       101,
     46.44,        93,
     46.46,        74,
     46.48,       103,
      46.5,        91,
     46.52,        91,
     46.54,        93,
     46.56,        97,
     46.58,        60,
      46.6,        77,
     46.62,        87,
     46.64,        68,
     46.66,        84,
     46.68,        79,
      46.7,        81,
     46.72,        72,
     46.74,        87,
     46.76,        81,
     46.78,        82,
      46.8,        82,
     46.82,        86,
     46.84,        61,
     46.86,        74,
     46.88,        74,
      46.9,        66,
     46.92,        77,
     46.94,        82,
     46.96,        77,
     46.98,        69,
        47,        82,
     47.02,        74,
     47.04,        60,
     47.06,        75,
     47.08,        83,
      47.1,        70,
     47.12,        82,
     47.14,        82,
     47.16,        86,
     47.18,        82,
      47.2,        95,
     47.22,        82,
     47.24,        82,
     47.26,        80,
     47.28,        93,
      47.3,        83,
     47.32,        85,
     47.34,        72,
     47.36,        78,
     47.38,        67,
      47.4,        86,
     47.42,        76,
     47.44,        76,
     47.46,        68,
     47.48,        88,
      47.5,        85,
     47.52,        90,
     47.54,        79,
     47.56,        78,
     47.58,        77,
      47.6,        82,
     47.62,        78,
     47.64,        91,
     47.66,        71,
     47.68,        83,
      47.7,        83,
     47.72,        76,
     47.74,        68,
     47.76,        73,
     47.78,        71,
      47.8,        76,
     47.82,        86,
     47.84,        78,
     47.86,        70,
     47.88,        65,
      47.9,        84,
     47.92,        84,
     47.94,        68,
     47.96,        80,
     47.98,        87,
        48,        68,
     48.02,        78,
     48.04,        70,
     48.06,        62,
     48.08,        90,
      48.1,        80,
     48.12,        69,
     48.14,        76,
     48.16,        80,
     48.18,        70,
      48.2,        70,
     48.22,        67,
     48.24,        89,
     48.26,        81,
     48.28,        78,
      48.3,        62,
     48.32,        83,
     48.34,        93,
     48.36,        76,
     48.38,        83,
      48.4,        80,
     48.42,        80,
     48.44,        79,
     48.46,        67,
     48.48,        78,
      48.5,        79,
     48.52,        65,
     48.54,        69,
     48.56,        88,
     48.58,        71,
      48.6,        63,
     48.62,        56,
     48.64,        78,
     48.66,        65,
     48.68,        81,
      48.7,        74,
     48.72,        72,
     48.74,        75,
     48.76,        79,
     48.78,        90,
      48.8,        76,
     48.82,        74,
     48.84,        71,
     48.86,        72,
     48.88,        68,
      48.9,        72,
     48.92,        75,
     48.94,        76,
     48.96,        86,
     48.98,        83,
        49,        73,
     49.02,        81,
     49.04,        67,
     49.06,        60,
     49.08,        70,
      49.1,        64,
     49.12,        69,
     49.14,        75,
     49.16,        73,
     49.18,        75,
      49.2,        72,
     49.22,        83,
     49.24,        72,
     49.26,        64,
     49.28,        92,
      49.3,        72,
     49.32,        76,
     49.34,        86,
     49.36,        86,
     49.38,        55,
      49.4,        65,
     49.42,        67,
     49.44,        67,
     49.46,        77,
     49.48,        77,
      49.5,        69,
     49.52,        68,
     49.54,        66,
     49.56,        72,
     49.58,        64,
      49.6,        71,
     49.62,        68,
     49.64,        77,
     49.66,        76,
     49.68,        72,
      49.7,        71,
     49.72,        55,
     49.74,        73,
     49.76,        85,
     49.78,        79,
      49.8,        59,
     49.82,        67,
     49.84,        75,
     49.86,        76,
     49.88,        87,
      49.9,        79,
     49.92,        83,
     49.94,        74,
     49.96,        58,
     49.98,        76,
        50,        51,
     50.02,        68,
     50.04,        71,
     50.06,        74,
     50.08,        66,
      50.1,        76,
     50.12,        62,
     50.14,        74,
     50.16,        76,
     50.18,        65,
      50.2,        69,
     50.22,        69,
     50.24,        80,
     50.26,        59,
     50.28,        58,
      50.3,        72,
     50.32,        66,
     50.34,        66,
     50.36,        74,
     50.38,        78,
      50.4,        52,
     50.42,        78,
     50.44,        75,
     50.46,        66,
     50.48,        77,
      50.5,        63,
     50.52,        59,
     50.54,        63,
     50.56,        66,
     50.58,        69,
      50.6,        72,
     50.62,        78,
     50.64,        74,
     50.66,        72,
     50.68,        68,
      50.7,        61,
     50.72,        64,
     50.74,        69,
     50.76,        63,
     50.78,        64,
      50.8,        70,
     50.82,        79,
     50.84,        55,
     50.86,        68,
     50.88,        73,
      50.9,        66,
     50.92,        77,
     50.94,        72,
     50.96,        73,
     50.98,        73,
        51,        59,
     51.02,        57,
     51.04,        68,
     51.06,        78,
     51.08,        64,
      51.1,        62,
     51.12,        64,
     51.14,        82,
     51.16,        75,
     51.18,        71,
      51.2,        79,
     51.22,        67,
     51.24,        81,
     51.26,        73,
     51.28,        62,
      51.3,        74,
     51.32,        71,
     51.34,        62,
     51.36,        70,
     51.38,        60,
      51.4,        64,
     51.42,        56,
     51.44,        63,
     51.46,        84,
     51.48,        73,
      51.5,        71,
     51.52,        88,
     51.54,        81,
     51.56,        67,
     51.58,        75,
      51.6,        76,
     51.62,        82,
     51.64,        63,
     51.66,        76,
     51.68,        67,
      51.7,        65,
     51.72,        85,
     51.74,        72,
     51.76,        58,
     51.78,        59,
      51.8,        65,
     51.82,        78,
     51.84,        68,
     51.86,        60,
     51.88,        68,
      51.9,        66,
     51.92,        75,
     51.94,        71,
     51.96,        70,
     51.98,        61,
        52,        87,
     52.02,        81,
     52.04,        82,
     52.06,        78,
     52.08,        86,
      52.1,        77,
     52.12,        82,
     52.14,        86,
     52.16,        85,
     52.18,        89,
      52.2,        71,
     52.22,        76,
     52.24,        74,
     52.26,        75,
     52.28,        91,
      52.3,        73,
     52.32,        98,
     52.34,        88,
     52.36,        95,
     52.38,        70,
      52.4,        88,
     52.42,        96,
     52.44,        91,
     52.46,        84,
     52.48,        92,
      52.5,        98,
     52.52,        88,
     52.54,        89,
     52.56,       103,
     52.58,        84,
      52.6,       106,
     52.62,        91,
     52.64,       105,
     52.66,       106,
     52.68,        85,
      52.7,        84,
     52.72,        95,
     52.74,       102,
     52.76,        98,
     52.78,       108,
      52.8,        87,
     52.82,       106,
     52.84,        88,
     52.86,        95,
     52.88,       114,
      52.9,        94,
     52.92,        96,
     52.94,        79,
     52.96,        98,
     52.98,       107,
        53,       103,
     53.02,        79,
     53.04,        97,
     53.06,        90,
     53.08,       104,
      53.1,        94,
     53.12,        92,
     53.14,        78,
     53.16,       101,
     53.18,        81,
      53.2,        81,
     53.22,        82,
     53.24,       106,
     53.26,        86,
     53.28,        96,
      53.3,       104,
     53.32,        90,
     53.34,        76,
     53.36,        88,
     53.38,        96,
      53.4,       111,
     53.42,        85,
     53.44,       105,
     53.46,       112,
     53.48,        94,
      53.5,        89,
     53.52,        92,
     53.54,       110,
     53.56,        82,
     53.58,        92,
      53.6,        93,
     53.62,        86,
     53.64,        89,
     53.66,       104,
     53.68,        98,
      53.7,        96,
     53.72,        91,
     53.74,       101,
     53.76,        81,
     53.78,        95,
      53.8,       110,
     53.82,       101,
     53.84,        81,
     53.86,       102,
     53.88,        90,
      53.9,        92,
     53.92,        92,
     53.94,        77,
     53.96,        76,
     53.98,        96,
        54,       107,
     54.02,        82,
     54.04,        90,
     54.06,        97,
     54.08,       113,
      54.1,        90,
     54.12,        83,
     54.14,       114,
     54.16,        90,
     54.18,        80,
      54.2,        98,
     54.22,        90,
     54.24,        88,
     54.26,        96,
     54.28,        73,
      54.3,        76,
     54.32,        85,
     54.34,        77,
     54.36,        89,
     54.38,        83,
      54.4,        86,
     54.42,        65,
     54.44,        75,
     54.46,        70,
     54.48,        83,
      54.5,        70,
     54.52,        63,
     54.54,        76,
     54.56,        69,
     54.58,        72,
      54.6,        78,
     54.62,        83,
     54.64,        73,
     54.66,        61,
     54.68,        70,
      54.7,        64,
     54.72,        74,
     54.74,        78,
     54.76,        72,
     54.78,        71,
      54.8,        76,
     54.82,        79,
     54.84,        81,
     54.86,        62,
     54.88,        64,
      54.9,        65,
     54.92,        72,
     54.94,        75,
     54.96,        62,
     54.98,        71,
        55,        60,
     55.02,        70,
     55.04,        62,
     55.06,        68,
     55.08,        60,
      55.1,        69,
     55.12,        69,
     55.14,        54,
     55.16,        58,
     55.18,        64,
      55.2,        66,
     55.22,        68,
     55.24,        56,
     55.26,        65,
     55.28,        70,
      55.3,        60,
     55.32,        62,
     55.34,        61,
     55.36,        66,
     55.38,        64,
      55.4,        53,
     55.42,        65,
     55.44,        66,
     55.46,        58,
     55.48,        59,
      55.5,        54,
     55.52,        62,
     55.54,        56,
     55.56,        61,
     55.58,        63,
      55.6,        55,
     55.62,        59,
     55.64,        63,
     55.66,        63,
     55.68,        63,
      55.7,        64,
     55.72,        55,
     55.74,        44,
     55.76,        58,
     55.78,        63,
      55.8,        53,
     55.82,        56,
     55.84,        41,
     55.86,        55,
     55.88,        62,
      55.9,        62,
     55.92,        64,
     55.94,        52,
     55.96,        64,
     55.98,        56,
        56,        65,
     56.02,        49,
     56.04,        51,
     56.06,        67,
     56.08,        61,
      56.1,        55,
     56.12,        65,
     56.14,        69,
     56.16,        50,
     56.18,        63,
      56.2,        62,
     56.22,        68,
     56.24,        68,
     56.26,        52,
     56.28,        58,
      56.3,        58,
     56.32,        37,
     56.34,        43,
     56.36,        71,
     56.38,        58,
      56.4,        62,
     56.42,        84,
     56.44,        61,
     56.46,        51,
     56.48,        64,
      56.5,        58,
     56.52,        55,
     56.54,        51,
     56.56,        58,
     56.58,        61,
      56.6,        52,
     56.62,        53,
     56.64,        54,
     56.66,        51,
     56.68,        55,
      56.7,        62,
     56.72,        60,
     56.74,        51,
     56.76,        59,
     56.78,        43,
      56.8,        57,
     56.82,        44,
     56.84,        50,
     56.86,        54,
     56.88,        63,
      56.9,        75,
     56.92,        63,
     56.94,        67,
     56.96,        55,
     56.98,        56,
        57,        43,
     57.02,        57,
     57.04,        49,
     57.06,        57,
     57.08,        59,
      57.1,        52,
     57.12,        58,
     57.14,        52,
     57.16,        42,
     57.18,        60,
      57.2,        63,
     57.22,        64,
     57.24,        56,
     57.26,        68,
     57.28,        52,
      57.3,        64,
     57.32,        47,
     57.34,        50,
     57.36,        70,
     57.38,        46,
      57.4,        45,
     57.42,        57,
     57.44,        45,
     57.46,        54,
     57.48,        72,
      57.5,        52,
     57.52,        61,
     57.54,        60,
     57.56,        55,
     57.58,        55,
      57.6,        50,
     57.62,        65,
     57.64,        48,
     57.66,        60,
     57.68,        53,
      57.7,        51,
     57.72,        58,
     57.74,        64,
     57.76,        52,
     57.78,        61,
      57.8,        58,
     57.82,        51,
     57.84,        64,
     57.86,        43,
     57.88,        50,
      57.9,        63,
     57.92,        60,
     57.94,        49,
     57.96,        54,
     57.98,        56,
        58,        40,
     58.02,        63,
     58.04,        57,
     58.06,        56,
     58.08,        55,
      58.1,        56,
     58.12,        45,
     58.14,        62,
     58.16,        38,
     58.18,        71,
      58.2,        51,
     58.22,        50,
     58.24,        61,
     58.26,        42,
     58.28,        49,
      58.3,        48,
     58.32,        45,
     58.34,        55,
     58.36,        69,
     58.38,        50,
      58.4,        54,
     58.42,        46,
     58.44,        58,
     58.46,        56,
     58.48,        56,
      58.5,        73,
     58.52,        66,
     58.54,        56,
     58.56,        59,
     58.58,        55,
      58.6,        64,
     58.62,        56,
     58.64,        46,
     58.66,        42,
     58.68,        58,
      58.7,        48,
     58.72,        58,
     58.74,        54,
     58.76,        49,
     58.78,        44,
      58.8,        61,
     58.82,        57,
     58.84,        61,
     58.86,        59,
     58.88,        65,
      58.9,        49,
     58.92,        59,
     58.94,        60,
     58.96,        62,
     58.98,        61,
        59,        51,
     59.02,        53,
     59.04,        54,
     59.06,        45,
     59.08,        49,
      59.1,        52,
     59.12,        61,
     59.14,        51,
     59.16,        49,
     59.18,        48,
      59.2,        61,
     59.22,        55,
     59.24,        61,
     59.26,        58,
     59.28,        55,
      59.3,        44,
     59.32,        48,
     59.34,        60,
     59.36,        53,
     59.38,        67,
      59.4,        50,
     59.42,        49,
     59.44,        42,
     59.46,        38,
     59.48,        53,
      59.5,        44,
     59.52,        45,
     59.54,        49,
     59.56,        42,
     59.58,        55,
      59.6,        58,
     59.62,        53,
     59.64,        60,
     59.66,        67,
     59.68,        63,
      59.7,        57,
     59.72,        58,
     59.74,        64,
     59.76,        52,
     59.78,        51,
      59.8,        63,
     59.82,        45,
     59.84,        75,
     59.86,        60,
     59.88,        56,
      59.9,        55,
     59.92,        57,
     59.94,        48,
     59.96,        45,
     59.98,        50,
        60,        56,
